OOIBase32 Version 1.0.0.8 Data File
++++++++++++++++++++++++++++++++++++
Date: Friday, January 04, 1980, 01:53:54
User: Valued Ocean Optics Customer
Spectrometer Serial Number: Unknown
Spectrometer Channel: Master
Integration Time (msec): 5
Spectra Averaged: 1
Boxcar Smoothing: 0
Correct for Electrical Dark: Disabled
Time Normalized: Disabled
Dual-beam Reference: Disabled
Reference Channel: Master
>>>>>Begin Spectral Data<<<<<
179.00	0.0000
179.38	0.0000
179.75	40.0000
180.13	240.0000
180.51	0.0000
180.88	900.0000
181.26	0.0000
181.64	50.0000
182.02	50.0000
182.39	200.0000
182.77	66.6667
183.15	-20.0000
183.52	100.0000
183.90	100.0000
184.28	0.0000
184.65	0.0000
185.03	0.0000
185.41	75.0000
185.78	0.0000
186.16	0.0000
186.53	600.0000
186.91	0.0000
187.29	200.0000
187.66	50.0000
188.04	0.0000
188.42	0.0000
188.79	-200.0000
189.17	100.0000
189.55	100.0000
189.92	0.0000
190.30	25.0000
190.67	0.0000
191.05	0.0000
191.43	33.3333
191.80	50.0000
192.18	-33.3333
192.56	33.3333
192.93	80.0000
193.31	0.0000
193.68	0.0000
194.06	-100.0000
194.44	-300.0000
194.81	200.0000
195.19	600.0000
195.56	150.0000
195.94	-200.0000
196.32	-133.3333
196.69	-200.0000
197.07	-100.0000
197.44	200.0000
197.82	166.6667
198.19	40.0000
198.57	-50.0000
198.95	100.0000
199.32	-33.3333
199.70	-50.0000
200.07	200.0000
200.45	77.7778
200.82	100.0000
201.20	250.0000
201.57	-100.0000
201.95	0.0000
202.33	200.0000
202.70	33.3333
203.08	-33.3333
203.45	-150.0000
203.83	100.0000
204.20	250.0000
204.58	-100.0000
204.95	200.0000
205.33	-400.0000
205.70	-300.0000
206.08	-33.3333
206.45	200.0000
206.83	100.0000
207.20	-200.0000
207.58	0.0000
207.95	-20.0000
208.33	140.0000
208.70	66.6667
209.08	25.0000
209.45	120.0000
209.83	133.3333
210.20	0.0000
210.58	0.0000
210.95	33.3333
211.33	0.0000
211.70	-50.0000
212.08	-100.0000
212.45	33.3333
212.83	100.0000
213.20	100.0000
213.58	40.0000
213.95	50.0000
214.33	40.0000
214.70	33.3333
215.07	100.0000
215.45	0.0000
215.82	16.6667
216.20	50.0000
216.57	-60.0000
216.95	100.0000
217.32	0.0000
217.70	-25.0000
218.07	85.7143
218.44	0.0000
218.82	250.0000
219.19	0.0000
219.57	0.0000
219.94	300.0000
220.32	57.1429
220.69	150.0000
221.06	16.6667
221.44	-100.0000
221.81	133.3333
222.19	0.0000
222.56	140.0000
222.93	0.0000
223.31	400.0000
223.68	100.0000
224.06	-66.6667
224.43	50.0000
224.80	0.0000
225.18	0.0000
225.55	-100.0000
225.92	33.3333
226.30	200.0000
226.67	-50.0000
227.05	250.0000
227.42	33.3333
227.79	80.0000
228.17	-33.3333
228.54	33.3333
228.91	-300.0000
229.29	50.0000
229.66	-25.0000
230.03	33.3333
230.41	0.0000
230.78	-200.0000
231.15	60.0000
231.53	-50.0000
231.90	36.3636
232.27	80.0000
232.65	20.0000
233.02	300.0000
233.39	75.0000
233.77	40.0000
234.14	100.0000
234.51	600.0000
234.89	266.6667
235.26	266.6667
235.63	50.0000
236.01	-50.0000
236.38	100.0000
236.75	0.0000
237.12	100.0000
237.50	0.0000
237.87	20.0000
238.24	-100.0000
238.62	-400.0000
238.99	140.0000
239.36	100.0000
239.73	160.0000
240.11	0.0000
240.48	40.0000
240.85	200.0000
241.23	-33.3333
241.60	33.3333
241.97	40.0000
242.34	-50.0000
242.72	25.0000
243.09	50.0000
243.46	200.0000
243.83	33.3333
244.21	0.0000
244.58	-16.6667
244.95	57.1429
245.32	-100.0000
245.70	400.0000
246.07	66.6667
246.44	25.0000
246.81	40.0000
247.18	55.5556
247.56	0.0000
247.93	400.0000
248.30	50.0000
248.67	-50.0000
249.04	50.0000
249.42	-12.5000
249.79	100.0000
250.16	-100.0000
250.53	0.0000
250.90	175.0000
251.28	33.3333
251.65	200.0000
252.02	50.0000
252.39	-166.6667
252.76	100.0000
253.14	400.0000
253.51	0.0000
253.88	125.0000
254.25	66.6667
254.62	350.0000
254.99	200.0000
255.37	0.0000
255.74	-10.0000
256.11	90.9091
256.48	57.1429
256.85	-50.0000
257.22	71.4286
257.59	0.0000
257.97	60.0000
258.34	0.0000
258.71	500.0000
259.08	0.0000
259.45	0.0000
259.82	-300.0000
260.19	100.0000
260.56	80.0000
260.94	0.0000
261.31	0.0000
261.68	-200.0000
262.05	100.0000
262.42	50.0000
262.79	116.6667
263.16	133.3333
263.53	-66.6667
263.90	1000.0000
264.28	-200.0000
264.65	25.0000
265.02	28.5714
265.39	75.0000
265.76	133.3333
266.13	28.5714
266.50	-25.0000
266.87	0.0000
267.24	50.0000
267.61	-50.0000
267.98	100.0000
268.35	133.3333
268.72	80.0000
269.09	37.5000
269.46	25.0000
269.84	0.0000
270.21	30.7692
270.58	0.0000
270.95	-100.0000
271.32	68.7500
271.69	-40.0000
272.06	100.0000
272.43	62.5000
272.80	92.3077
273.17	41.6667
273.54	133.3333
273.91	53.8462
274.28	42.8571
274.65	50.0000
275.02	75.0000
275.39	150.0000
275.76	60.0000
276.13	66.6667
276.50	90.9091
276.87	12.5000
277.24	71.4286
277.61	37.5000
277.98	55.5556
278.35	-100.0000
278.72	87.5000
279.09	33.3333
279.46	85.7143
279.83	16.6667
280.20	81.8182
280.57	87.5000
280.94	111.1111
281.31	50.0000
281.67	66.6667
282.04	42.8571
282.41	42.8571
282.78	90.9091
283.15	75.0000
283.52	100.0000
283.89	81.8182
284.26	33.3333
284.63	75.0000
285.00	50.0000
285.37	77.7778
285.74	100.0000
286.11	100.0000
286.48	69.2308
286.85	55.5556
287.21	128.5714
287.58	62.5000
287.95	66.6667
288.32	33.3333
288.69	56.2500
289.06	123.0769
289.43	50.0000
289.80	40.0000
290.17	83.3333
290.54	130.0000
290.90	100.0000
291.27	62.5000
291.64	66.6667
292.01	66.6667
292.38	57.1429
292.75	77.7778
293.12	120.0000
293.48	120.0000
293.85	64.2857
294.22	44.4444
294.59	27.2727
294.96	77.7778
295.33	80.0000
295.70	75.0000
296.06	76.9231
296.43	66.6667
296.80	73.3333
297.17	88.8889
297.54	128.5714
297.91	46.1538
298.27	72.7273
298.64	140.0000
299.01	87.5000
299.38	75.0000
299.75	64.2857
300.11	120.0000
300.48	175.0000
300.85	58.3333
301.22	100.0000
301.59	37.5000
301.95	107.6923
302.32	50.0000
302.69	33.3333
303.06	183.3333
303.43	66.6667
303.79	92.3077
304.16	62.5000
304.53	125.0000
304.90	93.7500
305.26	100.0000
305.63	133.3333
306.00	84.6154
306.37	81.8182
306.73	110.0000
307.10	140.0000
307.47	68.7500
307.84	73.3333
308.20	50.0000
308.57	140.0000
308.94	150.0000
309.31	70.0000
309.67	100.0000
310.04	100.0000
310.41	133.3333
310.77	116.6667
311.14	75.0000
311.51	114.2857
311.88	125.0000
312.24	233.3333
312.61	75.0000
312.98	155.5556
313.34	92.3077
313.71	90.0000
314.08	116.6667
314.44	84.6154
314.81	81.8182
315.18	71.4286
315.55	52.3810
315.91	64.7059
316.28	70.5882
316.65	350.0000
317.01	107.1429
317.38	68.1818
317.75	58.3333
318.11	50.0000
318.48	100.0000
318.84	85.7143
319.21	66.6667
319.58	116.6667
319.94	68.4211
320.31	77.2727
320.68	66.6667
321.04	92.8571
321.41	52.9412
321.78	68.7500
322.14	47.8261
322.51	62.5000
322.87	47.6190
323.24	52.1739
323.61	66.6667
323.97	47.8261
324.34	46.4286
324.70	57.6923
325.07	66.6667
325.44	61.5385
325.80	40.6250
326.17	36.6667
326.53	50.0000
326.90	35.7143
327.27	36.6667
327.63	43.2432
328.00	43.2432
328.36	41.6667
328.73	41.6667
329.09	28.1250
329.46	34.2105
329.83	31.5789
330.19	31.0345
330.56	34.1463
330.92	27.4510
331.29	46.3415
331.65	29.7872
332.02	34.6939
332.38	28.5714
332.75	32.6531
333.11	35.4167
333.48	33.3333
333.84	25.0000
334.21	32.0755
334.58	38.5965
334.94	19.5652
335.31	33.3333
335.67	28.0702
336.04	24.1379
336.40	27.1186
336.77	22.2222
337.13	24.5283
337.50	28.8136
337.86	32.2034
338.22	25.0000
338.59	17.5439
338.95	20.0000
339.32	25.8065
339.68	29.5082
340.05	30.0000
340.41	34.4262
340.78	30.5085
341.14	25.8621
341.51	19.6721
341.87	26.0870
342.24	20.9677
342.60	27.1429
342.96	28.3784
343.33	33.3333
343.69	25.0000
344.06	34.2857
344.42	28.9855
344.79	25.0000
345.15	20.0000
345.51	21.6216
345.88	25.6757
346.24	19.6970
346.61	25.9740
346.97	21.7391
347.34	21.6216
347.70	27.3973
348.06	28.5714
348.43	31.3953
348.79	27.8481
349.16	25.0000
349.52	30.4878
349.88	26.8817
350.25	26.0870
350.61	21.5190
350.97	23.6559
351.34	30.3371
351.70	29.4737
352.07	28.8660
352.43	22.7273
352.79	23.5955
353.16	24.4681
353.52	17.0455
353.88	25.2747
354.25	29.2135
354.61	24.7525
354.97	27.7778
355.34	21.3483
355.70	22.3404
356.06	25.0000
356.43	25.4902
356.79	23.9583
357.15	25.5102
357.52	20.0000
357.88	28.4211
358.24	25.7143
358.60	28.2828
358.97	23.2143
359.33	23.8095
359.69	20.1835
360.06	26.2136
360.42	22.4138
360.78	20.1835
361.14	25.2252
361.51	18.9655
361.87	27.9661
362.23	21.9298
362.60	25.0000
362.96	19.6429
363.32	24.1935
363.68	24.5902
364.05	30.7692
364.41	21.0084
364.77	28.6765
365.13	28.1250
365.50	22.3077
365.86	24.8120
366.22	25.7143
366.58	27.7778
366.95	26.0563
367.31	23.3577
367.67	28.2759
368.03	27.2059
368.39	22.9167
368.76	21.8310
369.12	27.4809
369.48	22.8571
369.84	31.7241
370.20	25.6944
370.57	27.0833
370.93	27.7027
371.29	29.4521
371.65	27.8146
372.01	31.5436
372.38	30.6667
372.74	25.1613
373.10	23.5294
373.46	26.7974
373.82	23.7500
374.18	23.3766
374.55	28.5714
374.91	21.9355
375.27	31.2139
375.63	23.4940
375.99	25.9259
376.35	24.8485
376.71	26.5432
377.08	26.1905
377.44	24.5714
377.80	27.6596
378.16	29.0503
378.52	23.0769
378.88	26.8421
379.24	22.1622
379.60	26.9036
379.97	28.7805
380.33	26.3415
380.69	26.5306
381.05	25.0000
381.41	27.8539
381.77	23.6715
382.13	24.0385
382.49	26.5700
382.85	24.7423
383.21	22.3256
383.57	19.0244
383.94	24.2291
384.30	22.1154
384.66	28.0702
385.02	24.7475
385.38	23.8739
385.74	24.0741
386.10	20.8889
386.46	21.3710
386.82	26.7490
387.18	25.2033
387.54	23.9496
387.90	24.7899
388.26	25.6098
388.62	24.3802
388.98	25.0000
389.34	22.7273
389.70	24.4813
390.06	27.1028
390.42	23.4234
390.78	22.8346
391.14	23.8596
391.50	23.1884
391.86	27.1478
392.22	23.5099
392.58	25.1825
392.94	24.1667
393.30	22.6190
393.66	24.6212
394.02	24.3816
394.38	25.0000
394.74	26.1538
395.10	24.7104
395.46	21.5827
395.82	25.3623
396.18	23.6434
396.54	26.5781
396.90	25.0804
397.26	24.0678
397.62	22.2951
397.98	20.1220
398.34	24.9084
398.70	26.5018
399.05	23.2932
399.41	23.2283
399.77	23.9286
400.13	25.2560
400.49	21.8855
400.85	26.1905
401.21	25.9124
401.57	25.1613
401.93	22.5806
402.29	24.7273
402.65	24.2857
403.00	22.1477
403.36	23.6667
403.72	26.5101
404.08	25.5882
404.44	23.4323
404.80	23.8562
405.16	24.6795
405.52	24.0741
405.87	24.2604
406.23	23.9748
406.59	26.0073
406.95	24.5902
407.31	22.5080
407.67	23.6760
408.03	27.0096
408.38	26.0317
408.74	26.2857
409.10	26.1364
409.46	22.5397
409.82	25.4601
410.17	27.5316
410.53	27.3616
410.89	26.5432
411.25	25.8865
411.61	26.8456
411.97	27.5229
412.32	24.6291
412.68	26.1765
413.04	24.3333
413.40	26.4925
413.75	25.9868
414.11	25.7525
414.47	25.0871
414.83	26.0234
415.19	26.2821
415.54	26.3158
415.90	26.7692
416.26	25.7053
416.62	27.4143
416.97	22.4561
417.33	26.0479
417.69	27.5229
418.05	29.2208
418.40	23.5495
418.76	25.7426
419.12	25.3561
419.48	24.9267
419.83	26.3736
420.19	25.3049
420.55	26.9565
420.90	25.9901
421.26	27.1233
421.62	26.3975
421.98	28.0899
422.33	26.0982
422.69	26.0417
423.05	27.1739
423.40	27.5000
423.76	26.6447
424.12	26.6289
424.47	28.3186
424.83	26.8293
425.19	26.4798
425.54	24.5399
425.90	27.0115
426.26	27.6536
426.61	26.4103
426.97	27.2414
427.33	26.8908
427.68	26.5306
428.04	26.4059
428.40	27.6808
428.75	25.0569
429.11	27.1003
429.47	27.5000
429.82	27.1689
430.18	27.9487
430.53	28.0423
430.89	26.9444
431.25	26.8698
431.60	26.6484
431.96	28.7709
432.31	26.9231
432.67	26.3158
433.03	26.8585
433.38	27.2480
433.74	28.1250
434.09	28.7958
434.45	28.4946
434.81	26.3930
435.16	26.3021
435.52	26.2108
435.87	28.0236
436.23	27.7612
436.58	28.8344
436.94	27.0195
437.30	28.9474
437.65	27.8351
438.01	28.2500
438.36	29.3151
438.72	31.0145
439.07	28.0597
439.43	28.1250
439.78	27.6650
440.14	28.8939
440.49	30.4910
440.85	28.2776
441.20	27.2300
441.56	29.8429
441.91	28.1465
442.27	28.8608
442.62	28.4987
442.98	29.9270
443.33	26.9923
443.69	28.2178
444.04	29.6296
444.40	27.9778
444.75	29.3233
445.11	30.1176
445.46	28.0460
445.82	27.1028
446.17	27.6316
446.53	28.5372
446.88	28.2895
447.23	28.6472
447.59	30.1105
447.94	28.8000
448.30	29.9492
448.65	29.5699
449.01	29.2271
449.36	32.8321
449.72	29.7674
450.07	27.8618
450.42	29.0780
450.78	31.9588
451.13	29.9766
451.49	28.9604
451.84	29.6675
452.19	30.2198
452.55	27.2021
452.90	30.6494
453.26	27.8037
453.61	30.0926
453.96	31.1295
454.32	29.0476
454.67	30.5344
455.02	28.6533
455.38	30.2949
455.73	30.5263
456.09	31.4421
456.44	30.5085
456.79	29.9528
457.15	27.4699
457.50	31.4861
457.85	31.8408
458.21	30.6533
458.56	30.6329
458.91	30.2730
459.27	31.4363
459.62	30.8901
459.97	29.6020
460.32	28.6064
460.68	30.4688
461.03	33.5180
461.38	31.8182
461.74	31.4010
462.09	29.2191
462.44	30.7895
462.80	31.5663
463.15	29.6296
463.50	32.0413
463.85	32.7189
464.21	31.9635
464.56	31.4775
464.91	31.3107
465.26	28.2238
465.62	31.7618
465.97	32.7945
466.32	31.6785
466.67	29.9766
467.03	31.2349
467.38	30.9927
467.73	32.6781
468.08	29.9287
468.44	32.4582
468.79	31.2039
469.14	30.7888
469.49	31.8766
469.85	31.2808
470.20	33.8565
470.55	33.0396
470.90	30.6167
471.25	33.1707
471.61	33.1096
471.96	32.3529
472.31	33.3333
472.66	32.9832
473.01	30.9572
473.36	34.2685
473.72	33.3333
474.07	32.4056
474.42	32.8872
474.77	32.0313
475.12	31.3688
475.47	34.0824
475.83	34.5216
476.18	31.9149
476.53	32.5581
476.88	33.2734
477.23	32.9749
477.58	33.8889
477.93	33.0258
478.28	32.6126
478.64	31.6434
478.99	31.7726
479.34	33.8409
479.69	32.3232
480.04	33.2787
480.39	35.5109
480.74	33.6120
481.09	33.6957
481.44	32.8455
481.79	34.9673
482.15	33.7134
482.50	32.9653
482.85	34.4288
483.20	34.9854
483.55	34.6880
483.90	34.9582
484.25	33.3333
484.60	32.2811
484.95	31.5018
485.30	32.9187
485.65	31.7546
486.00	33.7237
486.35	33.1572
486.70	33.3791
487.05	35.2617
487.40	32.9132
487.75	33.9056
488.10	33.5674
488.45	35.1825
488.80	33.7143
489.15	34.5021
489.50	35.2436
489.85	34.6797
490.20	34.4778
490.55	34.4924
490.90	35.6338
491.25	34.6424
491.60	34.5029
491.95	34.1394
492.30	35.2288
492.65	34.9582
493.00	34.6630
493.35	34.4780
493.70	34.8189
494.05	34.3662
494.40	36.4641
494.75	35.4054
495.10	33.8667
495.45	35.4712
495.80	33.4641
496.15	35.8621
496.50	35.3994
496.84	34.9229
497.19	35.3933
497.54	35.5556
497.89	35.2782
498.24	35.4795
498.59	36.3757
498.94	34.2355
499.29	35.4342
499.64	35.5586
499.99	35.0993
500.33	35.5705
500.68	35.7143
501.03	36.3392
501.38	35.0993
501.73	35.0066
502.08	36.4351
502.43	35.9844
502.77	35.9211
503.12	36.1149
503.47	34.9933
503.82	34.6667
504.17	35.7333
504.52	34.6859
504.86	37.2000
505.21	35.8151
505.56	35.3247
505.91	35.9788
506.26	35.0066
506.61	35.8366
506.95	36.7785
507.30	35.8289
507.65	35.6307
508.00	35.4194
508.35	36.2319
508.69	36.3517
509.04	36.1333
509.39	35.5526
509.74	34.9270
510.08	36.0852
510.43	35.2792
510.78	37.2063
511.13	36.6402
511.47	36.3395
511.82	36.3049
512.17	36.5183
512.52	35.6218
512.86	36.3281
513.21	37.5830
513.56	36.0677
513.91	36.8766
514.25	36.2694
514.60	36.1868
514.95	36.6362
515.30	37.0757
515.64	36.8831
515.99	35.0765
516.34	36.8766
516.68	36.8146
517.03	36.3041
517.38	37.4359
517.72	36.5385
518.07	36.3636
518.42	36.0656
518.76	38.4010
519.11	37.0274
519.46	37.1391
519.80	36.8082
520.15	37.5000
520.50	36.0864
520.84	36.7684
521.19	37.2925
521.54	38.2353
521.88	38.4921
522.23	36.6412
522.58	35.0567
522.92	36.4544
523.27	37.1069
523.61	36.5360
523.96	37.5000
524.31	37.4684
524.65	37.6989
525.00	36.9727
525.34	37.8065
525.69	37.4841
526.04	37.7525
526.38	36.8222
526.73	37.2624
527.07	37.6101
527.42	38.0952
527.76	38.2173
528.11	36.4407
528.46	38.0421
528.80	38.4615
529.15	37.2123
529.49	36.5482
529.84	36.9347
530.18	36.8421
530.53	36.6460
530.87	37.2525
531.22	38.4230
531.56	39.2723
531.91	36.9727
532.25	36.7246
532.60	37.4248
532.94	36.8932
533.29	37.1810
533.63	36.9830
533.98	37.6370
534.32	37.5306
534.67	37.7990
535.01	36.3636
535.36	38.0299
535.70	37.5312
536.05	37.7778
536.39	36.9176
536.74	37.9902
537.08	37.5610
537.43	38.5366
537.77	39.4866
538.12	36.7734
538.46	38.4522
538.80	37.6331
539.15	36.9193
539.49	38.1688
539.84	37.9391
540.18	37.8571
540.53	39.2390
540.87	39.4383
541.21	38.3055
541.56	37.8476
541.90	36.9104
542.25	38.3333
542.59	37.0588
542.93	37.9023
543.28	37.7804
543.62	36.3636
543.97	37.4134
544.31	38.3353
544.65	38.9952
545.00	38.9688
545.34	38.7634
545.68	38.2318
546.03	37.5148
546.37	39.1204
546.71	38.8195
547.06	37.7654
547.40	37.3884
547.74	37.3589
548.09	36.7698
548.43	38.1228
548.77	37.1930
549.12	37.0153
549.46	38.3234
549.80	39.5884
550.15	38.9087
550.49	38.7972
550.83	38.7802
551.17	37.8256
551.52	39.0698
551.86	37.9469
552.20	37.9115
552.55	37.2279
552.89	39.8830
553.23	38.1776
553.57	38.0137
553.92	38.6651
554.26	39.5189
554.60	37.8652
554.94	38.9450
555.29	38.7892
555.63	39.1011
555.97	39.0356
556.31	39.1256
556.66	38.6545
557.00	38.1776
557.34	39.4890
557.68	37.9587
558.02	38.0137
558.37	37.6417
558.71	39.1954
559.05	40.6606
559.39	39.5652
559.73	40.2823
560.08	39.1921
560.42	38.4279
560.76	39.0919
561.10	38.3352
561.44	38.5045
561.78	39.8004
562.13	39.8249
562.47	39.9329
562.81	40.4840
563.15	39.8455
563.49	41.4989
563.83	39.8664
564.17	39.8004
564.52	39.4209
564.86	39.2857
565.20	38.6885
565.54	38.8708
565.88	39.5022
566.22	38.5350
566.56	41.0695
566.90	39.2340
567.24	40.2878
567.59	40.0618
567.93	40.0200
568.27	40.0774
568.61	41.0086
568.95	39.9627
569.29	38.9249
569.63	40.1810
569.97	40.9214
570.31	39.7887
570.65	39.7611
570.99	39.5490
571.33	39.5490
571.67	40.0697
572.01	40.8574
572.35	39.1085
572.69	39.5885
573.03	39.6104
573.37	40.9164
573.71	41.0032
574.05	41.0194
574.39	40.4448
574.73	40.2129
575.07	41.0774
575.41	41.0214
575.75	42.4544
576.09	41.0436
576.43	41.7104
576.77	40.8563
577.11	41.5871
577.45	41.0969
577.79	41.8026
578.13	42.0679
578.47	42.0243
578.81	42.6966
579.15	41.0277
579.49	41.3386
579.83	42.2904
580.17	42.1238
580.51	41.8098
580.85	41.5627
581.19	41.4100
581.53	42.9197
581.87	41.8140
582.20	42.5125
582.54	42.9069
582.88	44.2359
583.22	43.0809
583.56	42.6325
583.90	42.9140
584.24	43.1402
584.58	42.7124
584.92	42.2434
585.25	43.2059
585.59	42.8216
585.93	43.3195
586.27	42.4879
586.61	44.3342
586.95	43.6735
587.29	43.4276
587.62	44.5106
587.96	44.0391
588.30	44.3003
588.64	44.8790
588.98	44.7858
589.31	44.0959
589.65	44.8473
589.99	44.7241
590.33	44.2927
590.67	43.4530
591.01	44.8643
591.34	43.2088
591.68	44.9250
592.02	45.1505
592.36	43.0579
592.69	44.5200
593.03	44.7552
593.37	43.5897
593.71	44.6714
594.04	45.5106
594.38	45.7885
594.72	44.0909
595.06	46.0600
595.39	46.9194
595.73	46.6223
596.07	46.1394
596.41	46.6919
596.74	45.8689
597.08	45.8058
597.42	46.6977
597.76	46.3702
598.09	46.4254
598.43	46.0573
598.77	45.4145
599.10	46.4254
599.44	45.7168
599.78	45.7568
600.11	45.4545
600.45	46.8972
600.79	48.2854
601.12	46.3504
601.46	46.8261
601.80	47.4255
602.13	46.5580
602.47	46.2963
602.81	47.7788
603.14	45.8447
603.48	46.5265
603.82	46.6421
604.15	46.9754
604.49	46.8721
604.82	46.3661
605.16	45.8605
605.50	46.0019
605.83	46.8953
606.17	47.9186
606.50	47.6103
606.84	47.1145
607.18	49.8559
607.51	47.5962
607.85	49.2172
608.18	47.5957
608.52	47.6054
608.86	48.0469
609.19	46.7360
609.53	47.5000
609.86	47.3634
610.20	48.2659
610.53	48.9655
610.87	48.3838
611.20	48.1076
611.54	49.4324
611.87	47.9397
612.21	47.8649
612.54	49.3852
612.88	49.2401
613.21	49.0375
613.55	48.1262
613.88	48.9109
614.22	49.0490
614.55	49.0060
614.89	48.9362
615.22	48.1218
615.56	48.8660
615.89	48.2830
616.23	48.9028
616.56	48.8172
616.90	49.8406
617.23	49.4092
617.57	48.1403
617.90	49.4002
618.24	48.5808
618.57	49.1839
618.90	49.0153
619.24	50.1650
619.57	49.6591
619.91	49.8881
620.24	51.8257
620.58	49.7691
620.91	50.6834
621.24	51.3143
621.58	50.5543
621.91	48.6249
622.25	47.7596
622.58	51.0567
622.91	49.9454
623.25	50.9259
623.58	50.4545
623.91	48.3466
624.25	51.9164
624.58	50.5828
624.92	50.2342
625.25	50.6587
625.58	50.3597
625.92	50.4113
626.25	50.1193
626.58	51.0689
626.92	51.2285
627.25	49.8191
627.58	49.8759
627.91	51.5078
628.25	49.5227
628.58	50.0596
628.91	50.4843
629.25	51.7835
629.58	50.3098
629.91	51.1111
630.25	52.0651
630.58	51.4502
630.91	50.9530
631.24	51.2920
631.58	51.7286
631.91	51.3548
632.24	51.9411
632.57	51.8373
632.91	52.3810
633.24	52.7926
633.57	52.2148
633.90	51.2000
634.24	53.0504
634.57	51.5232
634.90	50.9855
635.23	51.4474
635.56	53.4483
635.90	53.7849
636.23	52.0368
636.56	53.1544
636.89	53.2000
637.22	50.8564
637.56	52.5815
637.89	51.9890
638.22	52.5965
638.55	53.4137
638.88	51.7956
639.21	53.4435
639.55	54.0246
639.88	52.1498
640.21	53.2033
640.54	52.3142
640.87	52.9577
641.20	53.4851
641.53	53.3708
641.87	51.6760
642.20	52.6761
642.53	53.1250
642.86	52.6020
643.19	53.4266
643.52	53.0846
643.85	52.0509
644.18	52.9161
644.51	51.8841
644.84	51.4851
645.18	52.3471
645.51	53.4091
645.84	53.2281
646.17	54.6921
646.50	54.0146
646.83	52.8671
647.16	53.2189
647.49	52.1379
647.82	53.8569
648.15	53.0471
648.48	51.8468
648.81	51.9074
649.14	52.8914
649.47	54.1963
649.80	53.9118
650.13	54.2569
650.46	53.9437
650.79	51.8519
651.12	50.8403
651.45	54.5322
651.78	55.2975
652.11	54.9928
652.44	52.6696
652.77	52.8736
653.10	54.6512
653.43	54.3860
653.76	55.7803
654.09	53.7396
654.42	52.2388
654.75	53.3878
655.08	53.1743
655.41	53.0670
655.74	51.6328
656.07	50.5067
656.39	50.5168
656.72	49.6536
657.05	51.8014
657.38	53.7634
657.71	55.0667
658.04	53.7167
658.37	55.2408
658.70	55.4252
659.03	55.5387
659.36	54.6805
659.68	54.1229
660.01	54.0179
660.34	52.5074
660.67	53.7778
661.00	54.1106
661.33	54.7988
661.66	54.0582
661.98	54.9849
662.31	53.9634
662.64	52.9235
662.97	52.7407
663.30	53.4743
663.63	53.1722
663.95	54.5732
664.28	54.6012
664.61	56.2009
664.94	56.4945
665.27	55.7276
665.59	53.9051
665.92	55.0926
666.25	53.0675
666.58	55.0633
666.91	54.9844
667.23	54.5310
667.56	54.2587
667.89	55.4348
668.22	56.3780
668.54	55.2960
668.87	52.1212
669.20	54.3645
669.53	57.0747
669.85	56.0317
670.18	54.5879
670.51	52.1277
670.83	54.2042
671.16	55.9939
671.49	54.0212
671.82	54.7904
672.14	53.0735
672.47	54.8287
672.80	57.4841
673.12	55.6075
673.45	55.8029
673.78	54.2811
674.10	54.1732
674.43	55.8587
674.76	55.6818
675.08	57.7922
675.41	53.6508
675.74	54.4872
676.06	57.0962
676.39	55.5375
676.72	55.5911
677.04	56.2102
677.37	54.8742
677.69	55.5200
678.02	54.9521
678.35	54.2902
678.67	55.6634
679.00	57.1195
679.32	54.6022
679.65	57.4013
679.98	55.8101
680.30	53.8710
680.63	54.3548
680.95	55.8292
681.28	56.9307
681.60	55.1089
681.93	55.9265
682.26	54.5455
682.58	56.3356
682.91	56.5657
683.23	57.5707
683.56	58.1513
683.88	56.0065
684.21	57.1895
684.53	56.5428
684.86	57.8025
685.18	56.6879
685.51	57.0261
685.83	57.0481
686.16	54.9747
686.48	54.6531
686.81	55.3299
687.13	55.0600
687.46	56.2393
687.78	55.2496
688.11	53.9405
688.43	56.3140
688.76	58.6690
689.08	55.6738
689.41	55.4758
689.73	55.7932
690.05	57.3192
690.38	57.8014
690.70	54.8214
691.03	57.7778
691.35	57.2193
691.68	57.3801
692.00	57.8853
692.32	57.1429
692.65	55.5360
692.97	56.5217
693.29	57.6087
693.62	58.0524
693.94	56.9030
694.27	57.8067
694.59	58.1921
694.91	57.4906
695.24	58.0705
695.56	57.7438
695.88	56.5543
696.21	60.7692
696.53	55.3506
696.85	58.9416
697.18	54.9550
697.50	54.7101
697.82	56.9573
698.15	55.6391
698.47	56.7416
698.79	57.1157
699.12	55.2182
699.44	59.0909
699.76	57.6238
700.09	60.0000
700.41	59.9190
700.73	57.1713
701.05	57.0866
701.38	57.4850
701.70	59.8000
702.02	57.3705
702.34	56.6000
702.67	58.0198
702.99	59.2668
703.31	57.4380
703.63	57.9477
703.96	58.2809
704.28	58.3162
704.60	56.9072
704.92	56.4777
705.25	56.2372
705.57	58.9958
705.89	56.9138
706.21	59.2445
706.53	59.1440
706.86	59.0457
707.18	60.8611
707.50	58.5603
707.82	60.7214
708.14	58.4493
708.46	59.0000
708.79	56.9138
709.11	57.6846
709.43	57.3770
709.75	60.0410
710.07	59.2213
710.39	58.1967
710.71	57.1726
711.04	55.8943
711.36	57.4380
711.68	58.1741
712.00	57.7731
712.32	56.7677
712.64	60.4701
712.96	55.8045
713.28	58.3682
713.60	59.1753
713.92	57.9832
714.24	56.7901
714.57	59.2827
714.89	58.4388
715.21	57.4786
715.53	58.7473
715.85	54.9784
716.17	55.4084
716.49	58.8367
716.81	55.9913
717.13	56.1845
717.45	57.0499
717.77	57.6159
718.09	58.9800
718.41	58.2609
718.73	58.0717
719.05	59.4966
719.37	56.2780
719.69	56.8282
720.01	60.4911
720.33	57.5964
720.65	58.7444
720.97	58.2949
721.29	59.1981
721.61	58.3893
721.93	58.0866
722.25	55.8352
722.57	57.0455
722.89	55.4795
723.21	58.4323
723.52	57.7197
723.84	57.5472
724.16	57.0136
724.48	59.5794
724.80	57.3696
725.12	59.9089
725.44	58.6207
725.76	59.2771
726.08	57.5758
726.40	58.2547
726.72	58.9928
727.03	58.6854
727.35	61.1511
727.67	58.3535
727.99	58.0420
728.31	57.4118
728.63	55.7143
728.95	56.6125
729.26	58.9499
729.58	57.0755
729.90	59.2941
730.22	55.8962
730.54	58.1986
730.86	58.1019
731.17	56.7568
731.49	57.7726
731.81	60.5634
732.13	56.9124
732.45	56.6265
732.76	56.8345
733.08	58.8808
733.40	58.8652
733.72	59.5533
734.03	60.7748
734.35	60.8173
734.67	60.0490
734.99	58.1281
735.30	58.5784
735.62	60.1485
735.94	60.4478
736.26	60.2532
736.57	62.1212
736.89	58.7654
737.21	59.0674
737.53	59.3668
737.84	58.2011
738.16	60.0000
738.48	58.9947
738.79	59.1837
739.11	58.1864
739.43	62.0155
739.74	58.6387
740.06	59.8383
740.38	61.6438
740.69	59.0164
741.01	58.0556
741.33	59.0395
741.64	60.6742
741.96	59.6045
742.28	60.2241
742.59	58.8068
742.91	58.7393
743.23	61.6046
743.54	60.7670
743.86	59.4118
744.17	59.9407
744.49	60.1824
744.81	58.5586
745.12	58.3333
745.44	58.7879
745.75	60.1227
746.07	58.7879
746.38	58.1040
746.70	59.0361
747.02	57.9268
747.33	55.8282
747.65	58.1538
747.96	59.4030
748.28	57.9755
748.59	59.2025
748.91	57.8313
749.22	60.7362
749.54	59.5092
749.85	59.4340
750.17	58.1121
750.48	59.2025
750.80	60.7595
751.11	59.1640
751.43	62.4595
751.74	57.6324
752.06	59.7403
752.37	61.0063
752.69	60.3226
753.00	58.3333
753.32	60.1227
753.63	62.6168
753.95	61.9195
754.26	61.3419
754.58	63.1922
754.89	60.0000
755.20	60.3896
755.52	61.3208
755.83	62.8125
756.15	59.8160
756.46	61.5616
756.78	60.0000
757.09	60.1744
757.40	61.9597
757.72	63.3028
758.03	59.7523
758.34	60.2484
758.66	60.3030
758.97	59.8765
759.29	57.4850
759.60	54.6512
759.91	60.6154
760.23	60.3030
760.54	58.9666
760.85	61.1296
761.17	65.1757
761.48	60.2649
761.79	59.8007
762.11	62.1993
762.42	58.6093
762.73	60.6780
763.05	60.3960
763.36	60.7261
763.67	57.7049
763.98	59.8039
764.30	63.3117
764.61	59.8101
764.92	60.4430
765.23	60.4575
765.55	62.7517
765.86	58.5034
766.17	62.5430
766.48	58.9928
766.80	61.3718
767.11	60.0000
767.42	61.2319
767.73	57.6923
768.05	63.6364
768.36	62.6263
768.67	60.8392
768.98	59.0909
769.29	60.2076
769.61	57.8231
769.92	59.8566
770.23	63.5379
770.54	61.7978
770.85	60.4317
771.17	61.9565
771.48	61.8519
771.79	62.8352
772.10	62.1723
772.41	60.9023
772.72	62.5498
773.03	59.4488
773.35	60.3922
773.66	62.5984
773.97	60.9562
774.28	60.4938
774.59	59.5918
774.90	61.8257
775.21	60.5691
775.52	60.4743
775.83	60.5809
776.15	61.9048
776.46	61.0390
776.77	60.4255
777.08	60.0000
777.39	58.0508
777.70	59.2437
778.01	60.9244
778.32	63.2231
778.63	58.8477
778.94	60.2510
779.25	58.5774
779.56	59.7403
779.87	61.0169
780.18	62.0087
780.49	61.1111
780.80	58.1967
781.11	58.3691
781.42	57.6923
781.73	59.9138
782.04	62.9464
782.35	57.2687
782.66	61.5044
782.97	60.5263
783.28	65.7407
783.59	61.3953
783.90	61.2613
784.21	56.1905
784.52	62.1359
784.83	60.7656
785.14	61.3208
785.45	57.7982
785.76	60.7656
786.06	60.8911
786.37	65.3846
786.68	60.3865
786.99	64.4330
787.30	59.5122
787.61	57.2816
787.92	64.2157
788.23	62.0690
788.54	62.8141
788.84	59.6059
789.15	60.2871
789.46	59.0000
789.77	60.9626
790.08	65.9794
790.39	61.0811
790.70	66.1616
791.00	63.2432
791.31	67.2043
791.62	61.1399
791.93	62.6437
792.24	60.3261
792.54	65.4054
792.85	62.8415
793.16	66.8508
793.47	60.2094
793.78	63.1841
794.08	63.5897
794.39	57.1429
794.70	59.2965
795.01	57.6531
795.31	61.1111
795.62	59.3939
795.93	64.1176
796.24	59.7701
796.54	64.4578
796.85	63.5838
797.16	61.7647
797.47	63.4146
797.77	64.2857
798.08	62.2754
798.39	59.4286
798.69	57.4850
799.00	63.2530
799.31	62.1951
799.62	63.2258
799.92	61.1111
800.23	63.9241
800.54	64.3312
800.84	63.3987
801.15	61.7834
801.46	60.5096
801.76	58.9041
802.07	62.1795
802.37	63.4483
802.68	63.3803
802.99	64.5390
803.29	66.6667
803.60	61.2245
803.91	60.9589
804.21	62.0000
804.52	62.0690
804.82	60.1449
805.13	58.9041
805.44	61.3333
805.74	59.6026
806.05	60.1266
806.35	64.8649
806.66	59.7315
806.96	58.6207
807.27	60.5839
807.57	60.5839
807.88	65.2482
808.19	62.2378
808.49	63.9098
808.80	64.3357
809.10	59.7122
809.41	62.8788
809.71	60.7692
810.02	61.8321
810.32	63.9344
810.63	58.6777
810.93	62.8099
811.24	62.6866
811.54	66.1417
811.85	67.7419
812.15	63.5659
812.45	64.0000
812.76	64.5161
813.06	60.4839
813.37	60.0000
813.67	64.7541
813.98	60.0000
814.28	62.4000
814.58	61.4035
814.89	60.6838
815.19	62.0690
815.50	59.4828
815.80	58.8235
816.11	59.2000
816.41	60.1852
816.71	61.5385
817.02	64.9573
817.32	57.2581
817.62	64.4068
817.93	60.3774
818.23	55.8559
818.53	62.1622
818.84	65.4545
819.14	64.8649
819.44	62.3853
819.75	62.7119
820.05	58.4906
820.35	60.1770
820.66	62.0690
820.96	60.5263
821.26	63.8095
821.57	61.6822
821.87	58.1818
822.17	63.8095
822.48	64.2202
822.78	69.9029
823.08	67.3469
823.38	60.9091
823.69	64.3564
823.99	59.4340
824.29	59.1837
824.59	65.6566
824.90	61.2245
825.20	64.0777
825.50	68.5714
825.80	65.3846
826.10	61.9565
826.41	62.5000
826.71	69.1489
827.01	65.5914
827.31	62.6263
827.61	58.0000
827.92	62.1053
828.22	60.5769
828.52	68.8889
828.82	62.0000
829.12	71.7647
829.42	62.9213
829.73	63.2184
830.03	67.5000
830.33	62.6506
830.63	62.9213
830.93	65.2174
831.23	64.5161
831.53	72.8261
831.83	59.7826
832.14	61.6279
832.44	61.1765
832.74	57.3171
833.04	59.1398
833.34	60.2410
833.64	71.5909
833.94	62.9213
834.24	56.9892
834.54	59.1398
834.84	59.7561
835.14	66.6667
835.44	64.2857
835.74	63.8554
836.04	61.1111
836.34	60.2410
836.64	60.0000
836.95	57.4713
837.25	63.7500
837.55	63.5294
837.85	60.5263
838.15	59.7403
838.45	57.6923
838.74	61.6279
839.04	62.5000
839.34	66.6667
839.64	66.1765
839.94	69.3333
840.24	67.0732
840.54	57.1429
840.84	65.6716
841.14	61.6438
841.44	52.5641
841.74	62.1951
842.04	68.4932
842.34	62.8205
842.64	60.5634
842.94	60.0000
843.24	66.6667
843.53	62.5000
843.83	65.7534
844.13	57.1429
844.43	71.2329
844.73	64.3836
845.03	62.6866
845.33	61.9048
845.63	65.0794
845.92	73.4375
846.22	55.8824
846.52	70.6897
846.82	59.6774
847.12	69.6970
847.42	59.7015
847.71	62.8571
848.01	70.4225
848.31	60.3175
848.61	64.4068
848.91	54.4118
849.20	61.3333
849.50	52.4590
849.80	55.7377
850.10	64.5161
850.39	61.5385
850.69	60.6061
850.99	54.5455
851.29	65.5738
851.59	53.9683
851.88	61.9048
852.18	59.6774
852.48	59.6774
852.77	51.5625
853.07	60.6557
853.37	60.9375
853.67	54.2857
853.96	65.6716
854.26	61.4286
854.56	70.0000
854.85	61.6667
855.15	64.4068
855.45	64.2857
855.74	68.9655
856.04	55.9322
856.34	65.5738
856.63	59.6154
856.93	58.9286
857.23	64.7059
857.52	65.4545
857.82	61.0169
858.11	55.3846
858.41	48.5294
858.71	59.3220
859.00	46.5517
859.30	60.7843
859.59	66.6667
859.89	53.3333
860.19	68.5185
860.48	53.3333
860.78	63.8298
861.07	66.0377
861.37	71.1538
861.66	54.7170
861.96	67.3469
862.26	51.7857
862.55	64.1509
862.85	58.3333
863.14	61.5385
863.44	57.6923
863.73	53.8462
864.03	50.0000
864.32	54.7170
864.62	62.5000
864.91	54.7619
865.21	59.5745
865.50	61.7021
865.80	47.8261
866.09	60.0000
866.39	53.3333
866.68	57.1429
866.97	72.7273
867.27	56.2500
867.56	59.6154
867.86	54.0000
868.15	70.2128
868.45	55.2632
868.74	51.1628
869.03	53.1915
869.33	67.4419
869.62	66.6667
869.92	51.1628
870.21	48.7179
870.50	72.9730
870.80	47.2222
871.09	62.8571
871.39	60.0000
871.68	56.8182
871.97	51.3514
872.27	64.2857
872.56	75.6098
872.85	54.7619
873.15	57.5000
873.44	66.6667
873.73	59.4595
874.03	52.9412
874.32	70.5882
874.61	61.5385
874.90	65.9091
875.20	65.7895
875.49	52.0833
875.78	45.4545
>>>>>End Spectral Data<<<<<
