OOIBase32 Version 1.0.0.8 Data File
++++++++++++++++++++++++++++++++++++
Date: Friday, January 04, 1980, 01:57:06
User: Valued Ocean Optics Customer
Spectrometer Serial Number: Unknown
Spectrometer Channel: Master
Integration Time (msec): 5
Spectra Averaged: 1
Boxcar Smoothing: 0
Correct for Electrical Dark: Disabled
Time Normalized: Disabled
Dual-beam Reference: Disabled
Reference Channel: Master
>>>>>Begin Spectral Data<<<<<
179.00	0.0000
179.38	0.0000
179.75	80.0000
180.13	60.0000
180.51	0.0000
180.88	1000.0000
181.26	0.0000
181.64	75.0000
182.02	75.0000
182.39	600.0000
182.77	33.3333
183.15	120.0000
183.52	300.0000
183.90	77.7778
184.28	0.0000
184.65	0.0000
185.03	0.0000
185.41	75.0000
185.78	100.0000
186.16	116.6667
186.53	400.0000
186.91	20.0000
187.29	100.0000
187.66	50.0000
188.04	66.6667
188.42	-100.0000
188.79	-700.0000
189.17	-100.0000
189.55	125.0000
189.92	33.3333
190.30	-25.0000
190.67	-100.0000
191.05	100.0000
191.43	66.6667
191.80	75.0000
192.18	200.0000
192.56	100.0000
192.93	40.0000
193.31	0.0000
193.68	-200.0000
194.06	0.0000
194.44	-200.0000
194.81	-400.0000
195.19	300.0000
195.56	200.0000
195.94	300.0000
196.32	33.3333
196.69	50.0000
197.07	200.0000
197.44	66.6667
197.82	33.3333
198.19	100.0000
198.57	0.0000
198.95	-100.0000
199.32	0.0000
199.70	-100.0000
200.07	200.0000
200.45	11.1111
200.82	-100.0000
201.20	0.0000
201.57	200.0000
201.95	-60.0000
202.33	333.3333
202.70	33.3333
203.08	133.3333
203.45	0.0000
203.83	266.6667
204.20	150.0000
204.58	-150.0000
204.95	300.0000
205.33	200.0000
205.70	50.0000
206.08	0.0000
206.45	150.0000
206.83	200.0000
207.20	150.0000
207.58	0.0000
207.95	40.0000
208.33	40.0000
208.70	66.6667
209.08	-75.0000
209.45	0.0000
209.83	200.0000
210.20	0.0000
210.58	0.0000
210.95	133.3333
211.33	60.0000
211.70	-50.0000
212.08	200.0000
212.45	100.0000
212.83	33.3333
213.20	125.0000
213.58	140.0000
213.95	50.0000
214.33	0.0000
214.70	0.0000
215.07	-300.0000
215.45	0.0000
215.82	33.3333
216.20	133.3333
216.57	-40.0000
216.95	100.0000
217.32	0.0000
217.70	0.0000
218.07	57.1429
218.44	250.0000
218.82	100.0000
219.19	0.0000
219.57	0.0000
219.94	100.0000
220.32	57.1429
220.69	100.0000
221.06	33.3333
221.44	-400.0000
221.81	33.3333
222.19	200.0000
222.56	40.0000
222.93	-60.0000
223.31	300.0000
223.68	200.0000
224.06	-300.0000
224.43	-50.0000
224.80	0.0000
225.18	166.6667
225.55	25.0000
225.92	-100.0000
226.30	200.0000
226.67	-150.0000
227.05	-200.0000
227.42	100.0000
227.79	20.0000
228.17	66.6667
228.54	66.6667
228.91	-300.0000
229.29	0.0000
229.66	75.0000
230.03	50.0000
230.41	0.0000
230.78	-100.0000
231.15	80.0000
231.53	-50.0000
231.90	90.9091
232.27	120.0000
232.65	0.0000
233.02	250.0000
233.39	150.0000
233.77	60.0000
234.14	0.0000
234.51	0.0000
234.89	0.0000
235.26	166.6667
235.63	-200.0000
236.01	150.0000
236.38	125.0000
236.75	0.0000
237.12	-100.0000
237.50	0.0000
237.87	40.0000
238.24	500.0000
238.62	100.0000
238.99	100.0000
239.36	100.0000
239.73	80.0000
240.11	0.0000
240.48	80.0000
240.85	500.0000
241.23	66.6667
241.60	-16.6667
241.97	140.0000
242.34	-50.0000
242.72	50.0000
243.09	100.0000
243.46	-100.0000
243.83	233.3333
244.21	0.0000
244.58	-66.6667
244.95	42.8571
245.32	0.0000
245.70	250.0000
246.07	83.3333
246.44	75.0000
246.81	0.0000
247.18	22.2222
247.56	200.0000
247.93	-100.0000
248.30	50.0000
248.67	50.0000
249.04	100.0000
249.42	25.0000
249.79	133.3333
250.16	-100.0000
250.53	33.3333
250.90	125.0000
251.28	133.3333
251.65	150.0000
252.02	-25.0000
252.39	33.3333
252.76	-50.0000
253.14	700.0000
253.51	0.0000
253.88	25.0000
254.25	-16.6667
254.62	100.0000
254.99	0.0000
255.37	0.0000
255.74	20.0000
256.11	90.9091
256.48	42.8571
256.85	-300.0000
257.22	0.0000
257.59	33.3333
257.97	180.0000
258.34	0.0000
258.71	700.0000
259.08	0.0000
259.45	16.6667
259.82	100.0000
260.19	125.0000
260.56	40.0000
260.94	100.0000
261.31	-66.6667
261.68	-125.0000
262.05	-75.0000
262.42	12.5000
262.79	0.0000
263.16	100.0000
263.53	66.6667
263.90	-200.0000
264.28	200.0000
264.65	81.2500
265.02	85.7143
265.39	150.0000
265.76	116.6667
266.13	28.5714
266.50	175.0000
266.87	116.6667
267.24	75.0000
267.61	150.0000
267.98	275.0000
268.35	166.6667
268.72	160.0000
269.09	100.0000
269.46	83.3333
269.84	54.5455
270.21	61.5385
270.58	100.0000
270.95	233.3333
271.32	81.2500
271.69	160.0000
272.06	162.5000
272.43	137.5000
272.80	100.0000
273.17	108.3333
273.54	100.0000
273.91	92.3077
274.28	200.0000
274.65	130.0000
275.02	200.0000
275.39	133.3333
275.76	280.0000
276.13	233.3333
276.50	127.2727
276.87	187.5000
277.24	128.5714
277.61	162.5000
277.98	177.7778
278.35	150.0000
278.72	237.5000
279.09	466.6667
279.46	157.1429
279.83	183.3333
280.20	81.8182
280.57	250.0000
280.94	222.2222
281.31	237.5000
281.67	366.6667
282.04	128.5714
282.41	242.8571
282.78	154.5455
283.15	125.0000
283.52	275.0000
283.89	172.7273
284.26	300.0000
284.63	350.0000
285.00	141.6667
285.37	122.2222
285.74	166.6667
286.11	222.2222
286.48	130.7692
286.85	188.8889
287.21	214.2857
287.58	262.5000
287.95	211.1111
288.32	233.3333
288.69	125.0000
289.06	169.2308
289.43	237.5000
289.80	160.0000
290.17	191.6667
290.54	210.0000
290.90	169.2308
291.27	250.0000
291.64	150.0000
292.01	233.3333
292.38	257.1429
292.75	144.4444
293.12	220.0000
293.48	200.0000
293.85	142.8571
294.22	200.0000
294.59	136.3636
294.96	166.6667
295.33	200.0000
295.70	250.0000
296.06	176.9231
296.43	91.6667
296.80	153.3333
297.17	166.6667
297.54	285.7143
297.91	146.1538
298.27	145.4545
298.64	360.0000
299.01	225.0000
299.38	200.0000
299.75	135.7143
300.11	230.0000
300.48	525.0000
300.85	191.6667
301.22	180.0000
301.59	225.0000
301.95	184.6154
302.32	175.0000
302.69	500.0000
303.06	416.6667
303.43	183.3333
303.79	123.0769
304.16	143.7500
304.53	600.0000
304.90	175.0000
305.26	257.1429
305.63	200.0000
306.00	161.5385
306.37	227.2727
306.73	200.0000
307.10	540.0000
307.47	181.2500
307.84	153.3333
308.20	183.3333
308.57	290.0000
308.94	1200.0000
309.31	240.0000
309.67	300.0000
310.04	245.4545
310.41	225.0000
310.77	233.3333
311.14	156.2500
311.51	192.8571
311.88	300.0000
312.24	633.3333
312.61	225.0000
312.98	277.7778
313.34	200.0000
313.71	250.0000
314.08	183.3333
314.44	176.9231
314.81	190.9091
315.18	185.7143
315.55	147.6190
315.91	170.5882
316.28	200.0000
316.65	675.0000
317.01	250.0000
317.38	145.4545
317.75	208.3333
318.11	225.0000
318.48	220.0000
318.84	228.5714
319.21	173.3333
319.58	233.3333
319.94	152.6316
320.31	159.0909
320.68	180.0000
321.04	178.5714
321.41	176.4706
321.78	150.0000
322.14	147.8261
322.51	181.2500
322.87	161.9048
323.24	147.8261
323.61	133.3333
323.97	134.7826
324.34	110.7143
324.70	107.6923
325.07	133.3333
325.44	115.3846
325.80	125.0000
326.17	93.3333
326.53	100.0000
326.90	100.0000
327.27	110.0000
327.63	83.7838
328.00	94.5946
328.36	97.2222
328.73	83.3333
329.09	81.2500
329.46	89.4737
329.83	94.7368
330.19	96.5517
330.56	92.6829
330.92	72.5490
331.29	104.8780
331.65	87.2340
332.02	81.6327
332.38	69.3878
332.75	83.6735
333.11	79.1667
333.48	68.5185
333.84	69.2308
334.21	66.0377
334.58	66.6667
334.94	60.8696
335.31	72.5490
335.67	66.6667
336.04	67.2414
336.40	67.7966
336.77	70.3704
337.13	73.5849
337.50	64.4068
337.86	66.1017
338.22	73.2143
338.59	73.6842
338.95	70.9091
339.32	53.2258
339.68	63.9344
340.05	66.6667
340.41	65.5738
340.78	72.8814
341.14	74.1379
341.51	62.2951
341.87	63.7681
342.24	75.8065
342.60	67.1429
342.96	58.1081
343.33	73.0159
343.69	68.3333
344.06	68.5714
344.42	62.3188
344.79	68.7500
345.15	57.3333
345.51	56.7568
345.88	70.2703
346.24	69.6970
346.61	62.3377
346.97	72.4638
347.34	60.8108
347.70	65.7534
348.06	68.8312
348.43	61.6279
348.79	64.5570
349.16	66.6667
349.52	64.6341
349.88	63.4409
350.25	61.9565
350.61	65.8228
350.97	54.8387
351.34	60.6742
351.70	65.2632
352.07	60.8247
352.43	65.9091
352.79	75.2809
353.16	64.8936
353.52	59.0909
353.88	63.7363
354.25	66.2921
354.61	61.3861
354.97	68.8889
355.34	65.1685
355.70	63.8298
356.06	69.5652
356.43	62.7451
356.79	70.8333
357.15	66.3265
357.52	65.2632
357.88	70.5263
358.24	62.8571
358.60	71.7172
358.97	60.7143
359.33	68.5714
359.69	63.3028
360.06	70.8738
360.42	59.4828
360.78	64.2202
361.14	70.2703
361.51	62.0690
361.87	66.9492
362.23	68.4211
362.60	69.6429
362.96	64.2857
363.32	54.8387
363.68	63.9344
364.05	70.0000
364.41	66.3866
364.77	68.3824
365.13	69.5313
365.50	72.3077
365.86	66.9173
366.22	67.8571
366.58	73.0159
366.95	66.1972
367.31	70.0730
367.67	69.6552
368.03	72.0588
368.39	69.4444
368.76	65.4930
369.12	69.4656
369.48	67.1429
369.84	72.4138
370.20	67.3611
370.57	63.8889
370.93	68.9189
371.29	70.5479
371.65	72.1854
372.01	69.7987
372.38	72.0000
372.74	73.5484
373.10	63.9706
373.46	69.2810
373.82	65.6250
374.18	65.5844
374.55	64.2857
374.91	65.8065
375.27	65.3179
375.63	63.2530
375.99	60.4938
376.35	64.8485
376.71	66.6667
377.08	61.9048
377.44	62.8571
377.80	62.2340
378.16	63.1285
378.52	64.8352
378.88	63.6842
379.24	60.5405
379.60	62.9442
379.97	68.2927
380.33	65.8537
380.69	63.7755
381.05	62.7551
381.41	67.5799
381.77	61.8357
382.13	62.5000
382.49	65.7005
382.85	60.8247
383.21	59.5349
383.57	56.0976
383.94	64.7577
384.30	62.5000
384.66	57.8947
385.02	61.6162
385.38	56.7568
385.74	62.5000
386.10	58.6667
386.46	57.6613
386.82	60.0823
387.18	58.1301
387.54	60.0840
387.90	62.1849
388.26	58.9431
388.62	61.5702
388.98	62.7193
389.34	57.8512
389.70	63.0705
390.06	64.0187
390.42	60.3604
390.78	56.6929
391.14	53.3333
391.50	54.3478
391.86	60.1375
392.22	56.6225
392.58	62.7737
392.94	61.2500
393.30	54.7619
393.66	58.3333
394.02	54.4170
394.38	53.8136
394.74	58.4615
395.10	57.1429
395.46	53.2374
395.82	58.6957
396.18	54.6512
396.54	56.4784
396.90	54.6624
397.26	53.8983
397.62	55.7377
397.98	55.7927
398.34	53.4799
398.70	57.9505
399.05	54.2169
399.41	56.2992
399.77	52.1429
400.13	53.5836
400.49	53.5354
400.85	57.4830
401.21	54.0146
401.57	56.1290
401.93	51.2545
402.29	50.5455
402.65	52.1429
403.00	54.6980
403.36	53.0000
403.72	54.0268
404.08	50.5882
404.44	53.7954
404.80	54.2484
405.16	55.1282
405.52	51.5432
405.87	51.7751
406.23	48.5804
406.59	53.4799
406.95	52.1311
407.31	51.1254
407.67	52.3364
408.03	53.0547
408.38	52.3810
408.74	53.4286
409.10	51.7045
409.46	53.3333
409.82	51.2270
410.17	53.1646
410.53	50.1629
410.89	50.0000
411.25	49.6454
411.61	54.3624
411.97	53.5168
412.32	51.6320
412.68	52.0588
413.04	53.0000
413.40	54.1045
413.75	50.0000
414.11	51.1706
414.47	52.2648
414.83	49.4152
415.19	50.9615
415.54	51.5789
415.90	56.3077
416.26	51.0972
416.62	50.4673
416.97	48.4211
417.33	54.7904
417.69	53.8226
418.05	54.2208
418.40	49.4881
418.76	50.1650
419.12	50.1425
419.48	51.6129
419.83	52.4725
420.19	51.8293
420.55	51.8841
420.90	50.9901
421.26	49.5890
421.62	53.7267
421.98	51.1236
422.33	50.6460
422.69	52.8646
423.05	51.6304
423.40	50.9375
423.76	50.6579
424.12	50.7082
424.47	51.6224
424.83	50.9146
425.19	52.6480
425.54	48.4663
425.90	53.1609
426.26	50.8380
426.61	51.5385
426.97	47.9310
427.33	48.1793
427.68	50.1458
428.04	49.3888
428.40	50.8728
428.75	47.8360
429.11	52.0325
429.47	52.5000
429.82	47.9452
430.18	51.0256
430.53	51.0582
430.89	52.7778
431.25	50.1385
431.60	48.6264
431.96	50.0000
432.31	51.7751
432.67	50.2632
433.03	50.5995
433.38	49.5913
433.74	50.2604
434.09	51.0471
434.45	49.1935
434.81	51.6129
435.16	51.8229
435.52	50.7123
435.87	50.1475
436.23	49.5522
436.58	51.2270
436.94	50.1393
437.30	52.3684
437.65	50.0000
438.01	50.7500
438.36	51.2329
438.72	52.4638
439.07	48.9552
439.43	51.7045
439.78	50.2538
440.14	50.7901
440.49	49.6124
440.85	51.4139
441.20	48.3568
441.56	49.7382
441.91	51.0297
442.27	50.1266
442.62	51.1450
442.98	51.0949
443.33	48.5861
443.69	53.2178
444.04	51.5873
444.40	52.9086
444.75	50.6266
445.11	49.8824
445.46	50.8046
445.82	49.2991
446.17	53.1579
446.53	50.5995
446.88	50.8772
447.23	46.6844
447.59	49.4475
447.94	49.6000
448.30	49.4924
448.65	51.0753
449.01	48.7923
449.36	53.6341
449.72	50.9302
450.07	48.8121
450.42	50.1182
450.78	52.0619
451.13	50.8197
451.49	49.5050
451.84	50.1279
452.19	51.0989
452.55	49.7409
452.90	50.3896
453.26	51.4019
453.61	50.6944
453.96	52.8926
454.32	50.4762
454.67	51.6539
455.02	51.8625
455.38	51.2064
455.73	48.9474
456.09	52.2459
456.44	52.0581
456.79	50.4717
457.15	49.1566
457.50	51.8892
457.85	53.9801
458.21	52.0101
458.56	51.1392
458.91	49.1315
459.27	50.6775
459.62	50.5236
459.97	50.4975
460.32	49.3888
460.68	49.4792
461.03	51.5235
461.38	52.1390
461.74	50.9662
462.09	52.1411
462.44	51.5789
462.80	50.3614
463.15	50.1235
463.50	50.6460
463.85	51.8433
464.21	51.3699
464.56	50.1071
464.91	47.0874
465.26	49.3917
465.62	51.1166
465.97	51.9630
466.32	50.1182
466.67	48.0094
467.03	51.0896
467.38	50.6053
467.73	50.3686
468.08	48.9311
468.44	51.3126
468.79	52.5799
469.14	50.1272
469.49	51.1568
469.85	50.2463
470.20	51.7937
470.55	51.1013
470.90	50.4405
471.25	52.9268
471.61	51.6779
471.96	49.5475
472.31	50.7431
472.66	49.7899
473.01	50.1018
473.36	52.5050
473.72	49.5984
474.07	50.8946
474.42	48.3748
474.77	51.5625
475.12	48.6692
475.47	50.5618
475.83	51.0319
476.18	50.8704
476.53	51.1628
476.88	50.5396
477.23	52.1505
477.58	51.6667
477.93	51.8450
478.28	49.3694
478.64	50.3497
478.99	50.0000
479.34	51.0998
479.69	50.8418
480.04	50.6557
480.39	52.5963
480.74	52.6756
481.09	51.5528
481.44	51.5447
481.79	53.1046
482.15	50.8143
482.50	51.2618
482.85	50.8607
483.20	52.0408
483.55	50.9434
483.90	51.8106
484.25	50.0581
484.60	48.3707
484.95	48.2601
485.30	48.8995
485.65	49.3003
486.00	50.5855
486.35	50.5945
486.70	50.0000
487.05	50.9642
487.40	49.8599
487.75	51.7883
488.10	49.8596
488.45	51.2409
488.80	50.1429
489.15	51.6129
489.50	52.1490
489.85	51.8106
490.20	51.5021
490.55	51.0431
490.90	51.4085
491.25	51.0519
491.60	53.0702
491.95	50.0711
492.30	51.0402
492.65	51.6713
493.00	50.2063
493.35	49.4505
493.70	50.9749
494.05	51.9718
494.40	51.7956
494.75	52.0270
495.10	51.2000
495.45	50.2618
495.80	49.2810
496.15	52.4138
496.50	51.7906
496.84	50.9116
497.19	51.9663
497.54	53.3333
497.89	51.8318
498.24	52.7397
498.59	51.4550
498.94	51.8268
499.29	52.5210
499.64	51.2262
499.99	50.1987
500.33	52.2148
500.68	50.4043
501.03	52.3553
501.38	50.5960
501.73	52.8402
502.08	50.8519
502.43	51.3690
502.77	50.7895
503.12	52.9412
503.47	52.0861
503.82	52.2667
504.17	52.2667
504.52	51.0471
504.86	52.0000
505.21	50.9628
505.56	50.6494
505.91	51.5873
506.26	50.7266
506.61	50.7246
506.95	52.2148
507.30	50.5348
507.65	49.9350
508.00	51.7976
508.35	52.4374
508.69	51.1811
509.04	52.5333
509.39	52.7297
509.74	52.5896
510.08	52.4634
510.43	51.5228
510.78	53.5248
511.13	52.2487
511.47	51.7241
511.82	51.1628
512.17	51.3089
512.52	51.2953
512.86	52.8646
513.21	52.9880
513.56	51.4323
513.91	51.4436
514.25	51.4249
514.60	51.6213
514.95	50.5867
515.30	52.0888
515.64	52.4675
515.99	52.6786
516.34	54.7244
516.68	52.7415
517.03	52.4246
517.38	52.9487
517.72	52.3077
518.07	51.3889
518.42	52.0807
518.76	55.1769
519.11	53.7158
519.46	53.0184
519.80	51.7375
520.15	52.9948
520.50	53.4943
520.84	52.1628
521.19	51.9796
521.54	52.9412
521.88	53.4392
522.23	53.6896
522.58	53.5939
522.92	50.8115
523.27	52.9560
523.61	53.4766
523.96	51.7857
524.31	52.7848
524.65	51.8972
525.00	51.6129
525.34	52.6452
525.69	51.8424
526.04	53.4091
526.38	53.3417
526.73	52.2180
527.07	53.0818
527.42	52.0050
527.76	52.6252
528.11	52.5424
528.46	52.0446
528.80	53.4739
529.15	52.9412
529.49	50.8883
529.84	52.1357
530.18	52.6316
530.53	50.5590
530.87	51.9802
531.22	53.4418
531.56	53.8269
531.91	52.9777
532.25	52.6055
532.60	52.2262
532.94	52.0631
533.29	52.4909
533.63	52.4331
533.98	52.3752
534.32	53.3007
534.67	53.8278
535.01	51.5550
535.36	52.9925
535.70	51.3716
536.05	52.8395
536.39	51.6129
536.74	53.0637
537.08	52.0732
537.43	52.4390
537.77	53.6675
538.12	51.6014
538.46	53.8089
538.80	52.0710
539.15	52.6895
539.49	51.1296
539.84	51.5222
540.18	52.5000
540.53	51.9620
540.87	52.9915
541.21	53.8186
541.56	52.7207
541.90	52.7123
542.25	52.6190
542.59	52.7059
542.93	53.1585
543.28	51.7119
543.62	50.0575
543.97	51.2702
544.31	52.5205
544.65	51.7943
545.00	53.4772
545.34	52.6754
545.68	52.0908
546.03	51.2426
546.37	53.1250
546.71	50.9648
547.06	50.7263
547.40	50.7813
547.74	51.5801
548.09	51.3173
548.43	51.5643
548.77	50.4094
549.12	51.7039
549.46	53.1737
549.80	53.8741
550.15	51.8387
550.49	51.0613
550.83	49.9425
551.17	51.3024
551.52	51.0465
551.86	52.0185
552.20	51.7594
552.55	51.5464
552.89	52.6316
553.23	52.2491
553.57	50.6849
553.92	51.8987
554.26	51.6609
554.60	50.3371
554.94	52.6375
555.29	51.9058
555.63	52.1348
555.97	52.9277
556.31	51.5695
556.66	52.3375
557.00	52.9412
557.34	53.1940
557.68	52.0642
558.02	52.9680
558.37	50.1134
558.71	52.5287
559.05	53.0752
559.39	50.2174
559.73	51.6830
560.08	51.6376
560.42	50.2183
560.76	51.0520
561.10	51.5882
561.44	51.3393
561.78	52.4390
562.13	52.0788
562.47	52.3490
562.81	51.4851
563.15	51.9868
563.49	52.9083
563.83	51.0022
564.17	51.6630
564.52	52.4499
564.86	52.4892
565.20	51.5847
565.54	50.1629
565.88	51.9481
566.22	51.4862
566.56	51.6578
566.90	50.9317
567.24	51.9013
567.59	50.4634
567.93	51.0978
568.27	49.8548
568.61	50.2379
568.95	50.1401
569.29	50.6951
569.63	50.8597
569.97	49.6838
570.31	48.9437
570.65	48.1229
570.99	49.9566
571.33	49.0893
571.67	48.6063
572.01	49.2563
572.35	49.0328
572.69	47.9835
573.03	49.1883
573.37	48.7138
573.71	48.5669
574.05	49.8382
574.39	47.7759
574.73	48.6486
575.07	50.5892
575.41	48.2702
575.75	48.6733
576.09	48.9875
576.43	48.3121
576.77	47.6052
577.11	48.8611
577.45	48.2344
577.79	47.7078
578.13	48.4609
578.47	48.4211
578.81	49.5185
579.15	47.9051
579.49	47.4803
579.83	46.8563
580.17	47.8903
580.51	46.8296
580.85	47.5378
581.19	47.2279
581.53	47.2993
581.87	47.3482
582.20	49.2512
582.54	49.4343
582.88	50.5809
583.22	50.4787
583.56	48.5099
583.90	48.3280
584.24	47.9421
584.58	47.7007
584.92	48.7669
585.25	48.3320
585.59	47.5519
585.93	47.4689
586.27	48.2229
586.61	49.3797
586.95	48.4082
587.29	48.9185
587.62	48.7660
587.96	49.2883
588.30	48.8415
588.64	49.6276
588.98	48.9758
589.31	48.4317
589.65	48.8550
589.99	48.6931
590.33	50.0488
590.67	49.8545
591.01	50.2907
591.34	48.2224
591.68	49.4263
592.02	49.6656
592.36	47.1074
592.69	49.2778
593.03	49.9126
593.37	47.8338
593.71	49.2007
594.04	48.3275
594.38	49.1935
594.72	48.6364
595.06	49.7186
595.39	50.0474
595.73	49.2864
596.07	48.9642
596.41	49.0548
596.74	49.2877
597.08	49.1046
597.42	49.7674
597.76	49.9093
598.09	49.5146
598.43	49.0143
598.77	48.5009
599.10	50.4854
599.44	48.6014
599.78	49.2563
600.11	48.7522
600.45	48.3156
600.79	49.6756
601.12	48.6314
601.46	49.2180
601.80	49.5032
602.13	49.6377
602.47	48.0600
602.81	49.8640
603.14	49.1324
603.48	46.4351
603.82	48.8500
604.15	49.2439
604.49	48.3660
604.82	48.1141
605.16	48.8372
605.50	49.0122
605.83	47.8221
606.17	48.7512
606.50	47.3346
606.84	48.6282
607.18	50.0480
607.51	49.6154
607.85	49.6086
608.18	49.9509
608.52	49.3295
608.86	49.6094
609.19	48.3444
609.53	49.2308
609.86	49.5686
610.20	48.9403
610.53	49.8522
610.87	50.3030
611.20	50.0000
611.54	50.9804
611.87	49.4472
612.21	48.7587
612.54	49.0779
612.88	49.7467
613.21	49.6454
613.55	49.2110
613.88	49.0099
614.22	49.7497
614.55	49.0060
614.89	49.9493
615.22	48.5279
615.56	50.0000
615.89	49.7399
616.23	50.6792
616.56	49.5699
616.90	50.4782
617.23	49.9463
617.57	50.7970
617.90	51.2541
618.24	50.3275
618.57	49.6192
618.90	50.7659
619.24	50.3850
619.57	49.6591
619.91	49.8881
620.24	50.7656
620.58	51.1547
620.91	52.2779
621.24	49.8286
621.58	50.0000
621.91	50.0550
622.25	48.4153
622.58	50.5006
622.91	50.1639
623.25	50.9259
623.58	51.3636
623.91	49.9430
624.25	50.8711
624.58	50.2331
624.92	50.1171
625.25	51.1377
625.58	50.3597
625.92	48.0611
626.25	50.1193
626.58	50.1188
626.92	50.7371
627.25	49.0953
627.58	51.7370
627.91	51.2666
628.25	51.5513
628.58	50.8939
628.91	51.9370
629.25	52.5215
629.58	51.0533
629.91	51.6049
630.25	50.8135
630.58	51.4502
630.91	52.3507
631.24	51.6796
631.58	50.8323
631.91	51.4839
632.24	53.4137
632.57	51.4436
632.91	50.7937
633.24	50.1330
633.57	52.3490
633.90	52.1333
634.24	52.2546
634.57	51.2583
634.90	49.6715
635.23	50.2632
635.56	52.6525
635.90	52.5896
636.23	51.3798
636.56	51.6779
636.89	53.0667
637.22	50.0659
637.56	51.3587
637.89	52.8121
638.22	50.0666
638.55	51.5395
638.88	50.4144
639.21	52.7548
639.55	50.6139
639.88	51.4563
640.21	53.3426
640.54	51.6129
640.87	51.5493
641.20	52.2048
641.53	51.6854
641.87	51.6760
642.20	52.2535
642.53	52.2727
642.86	52.1800
643.19	50.2098
643.52	51.5065
643.85	50.6365
644.18	50.9246
644.51	51.0145
644.84	51.9095
645.18	52.3471
645.51	49.7159
645.84	51.2195
646.17	53.0792
646.50	51.2409
646.83	50.4895
647.16	51.9313
647.49	50.7586
647.82	51.8934
648.15	51.1080
648.48	50.0684
648.81	50.4087
649.14	51.3399
649.47	51.0669
649.80	51.7781
650.13	51.2266
650.46	52.5352
650.79	52.8490
651.12	51.4006
651.45	52.1930
651.78	53.1205
652.11	50.9407
652.44	49.7835
652.77	50.1437
653.10	51.3081
653.43	52.7778
653.76	51.4451
654.09	51.6620
654.42	46.1028
654.75	43.1043
655.08	42.9396
655.41	43.0813
655.74	44.3513
656.07	43.7333
656.39	44.3152
656.72	44.8807
657.05	48.1986
657.38	51.2545
657.71	50.5333
658.04	50.3506
658.37	49.5751
658.70	51.4663
659.03	51.5933
659.36	51.5602
659.68	51.8741
660.01	51.6369
660.34	50.7375
660.67	50.5185
661.00	51.7190
661.33	53.5604
661.66	51.9142
661.98	50.9063
662.31	51.0671
662.64	51.8741
662.97	50.0741
663.30	50.7553
663.63	50.6042
663.95	52.4390
664.28	50.1534
664.61	50.8634
664.94	52.4257
665.27	51.3932
665.59	50.5360
665.92	52.6235
666.25	52.7607
666.58	51.7405
666.91	52.1807
667.23	51.6693
667.56	52.0505
667.89	52.3292
668.22	51.6535
668.54	50.9346
668.87	49.6970
669.20	51.7611
669.53	50.8744
669.85	50.3175
670.18	50.8554
670.51	48.3283
670.83	49.0991
671.16	51.7451
671.49	51.8968
671.82	49.7006
672.14	50.9745
672.47	50.4673
672.80	51.1146
673.12	50.6231
673.45	51.6693
673.78	50.4039
674.10	49.7638
674.43	50.8828
674.76	53.5714
675.08	52.1104
675.41	50.7937
675.74	51.1218
676.06	52.2023
676.39	50.9772
676.72	51.2780
677.04	49.0446
677.37	50.0000
677.69	51.2000
678.02	50.4792
678.35	48.6739
678.67	51.9417
679.00	52.8642
679.32	49.7660
679.65	51.4803
679.98	53.3552
680.30	50.8065
680.63	50.8065
680.95	50.7389
681.28	50.9901
681.60	49.2462
681.93	50.5843
682.26	49.8316
682.58	51.5411
682.91	48.9899
683.23	50.2496
683.56	51.2605
683.88	50.8117
684.21	51.3072
684.53	49.7577
684.86	51.2739
685.18	50.6369
685.51	50.1634
685.83	51.2438
686.16	50.5902
686.48	51.2690
686.81	50.4230
687.13	51.9726
687.46	51.6239
687.78	51.8072
688.11	51.1384
688.43	48.6348
688.76	51.3135
689.08	52.1277
689.41	52.0646
689.73	51.5152
690.05	49.0300
690.38	52.4823
690.70	52.3214
691.03	52.7778
691.35	53.2977
691.68	53.6900
692.00	50.8961
692.32	51.0714
692.65	49.9121
692.97	48.5217
693.29	51.2681
693.62	52.8090
693.94	50.9328
694.27	51.8587
694.59	51.9774
694.91	50.7491
695.24	51.9481
695.56	51.4340
695.88	51.1236
696.21	51.3462
696.53	52.9520
696.85	50.9124
697.18	49.7297
697.50	48.3696
697.82	51.7625
698.15	50.5639
698.47	49.6255
698.79	50.2846
699.12	50.4744
699.44	50.9881
699.76	52.2772
700.09	53.2000
700.41	52.0243
700.73	50.9960
701.05	52.1654
701.38	52.8942
701.70	51.8000
702.02	52.3904
702.34	52.4000
702.67	51.2871
702.99	53.7678
703.31	53.0992
703.63	51.1066
703.96	51.1530
704.28	49.4867
704.60	50.5155
704.92	51.4170
705.25	51.3292
705.57	50.6276
705.89	49.6994
706.21	51.6899
706.53	49.4163
706.86	52.6839
707.18	51.4677
707.50	51.1673
707.82	52.5050
708.14	51.4911
708.46	52.0000
708.79	52.3046
709.11	50.2994
709.43	49.3852
709.75	50.8197
710.07	52.2541
710.39	50.0000
710.71	51.9751
711.04	51.6260
711.36	50.6198
711.68	51.5924
712.00	50.6303
712.32	48.4848
712.64	50.6410
712.96	48.4725
713.28	49.3724
713.60	51.1340
713.92	50.0000
714.24	50.0000
714.57	50.8439
714.89	50.8439
715.21	49.7863
715.53	52.0518
715.85	49.5671
716.17	51.2141
716.49	52.3490
716.81	50.7625
717.13	50.1048
717.45	49.2408
717.77	51.4349
718.09	53.4368
718.41	52.3913
718.73	49.5516
719.05	51.4874
719.37	48.2063
719.69	50.0000
720.01	51.3393
720.33	51.7007
720.65	50.0000
720.97	52.7650
721.29	51.4151
721.61	52.3490
721.93	49.8861
722.25	49.8856
722.57	50.9091
722.89	50.9132
723.21	51.7815
723.52	53.6817
723.84	52.3585
724.16	49.7738
724.48	51.6355
724.80	48.5261
725.12	51.0251
725.44	51.0345
725.76	50.8434
726.08	50.5828
726.40	51.1792
726.72	51.3189
727.03	49.0610
727.35	52.2782
727.67	51.3317
727.99	50.1166
728.31	49.8824
728.63	50.9524
728.95	48.4919
729.26	51.5513
729.58	50.2358
729.90	48.7059
730.22	50.2358
730.54	48.4988
730.86	49.7685
731.17	50.0000
731.49	49.1879
731.81	50.7042
732.13	50.0000
732.45	50.1205
732.76	47.9616
733.08	50.3650
733.40	50.8274
733.72	52.8536
734.03	51.5738
734.35	52.1635
734.67	51.7157
734.99	49.7537
735.30	50.9804
735.62	51.2376
735.94	49.2537
736.26	49.8734
736.57	51.5152
736.89	48.8889
737.21	50.0000
737.53	50.9235
737.84	50.2646
738.16	49.4595
738.48	52.9101
738.79	49.4898
739.11	49.1184
739.43	50.6460
739.74	47.6440
740.06	49.8652
740.38	51.7808
740.69	49.1803
741.01	51.1111
741.33	51.9774
741.64	54.2135
741.96	53.9548
742.28	48.4594
742.59	50.8523
742.91	51.2894
743.23	50.7163
743.54	52.2124
743.86	53.8235
744.17	52.2255
744.49	51.9757
744.81	52.5526
745.12	49.4048
745.44	52.1212
745.75	52.4540
746.07	50.6061
746.38	49.5413
746.70	49.6988
747.02	50.9146
747.33	49.6933
747.65	51.3846
747.96	48.6567
748.28	52.4540
748.59	51.2270
748.91	51.5060
749.22	52.4540
749.54	50.0000
749.85	51.2579
750.17	48.6726
750.48	48.1595
750.80	49.6835
751.11	50.8039
751.43	50.8091
751.74	50.4673
752.06	52.9221
752.37	49.0566
752.69	52.9032
753.00	49.6914
753.32	51.8405
753.63	52.0249
753.95	51.7028
754.26	53.0351
754.58	52.1173
754.89	53.2258
755.20	49.3506
755.52	51.2579
755.83	54.0625
756.15	50.6135
756.46	51.9520
756.78	49.2537
757.09	48.2558
757.40	48.7032
757.72	50.1529
758.03	52.3220
758.34	49.3789
758.66	50.3030
758.97	52.1605
759.29	48.8024
759.60	46.8023
759.91	54.7692
760.23	52.7273
760.54	50.1520
760.85	50.1661
761.17	51.7572
761.48	51.6556
761.79	49.1694
762.11	52.5773
762.42	49.0066
762.73	48.8136
763.05	47.8548
763.36	49.8350
763.67	52.4590
763.98	52.6144
764.30	50.9740
764.61	48.4177
764.92	50.3165
765.23	51.3072
765.55	50.0000
765.86	49.3197
766.17	51.8900
766.48	49.6403
766.80	51.6245
767.11	51.5789
767.42	52.5362
767.73	48.9510
768.05	54.8951
768.36	50.1684
768.67	48.6014
768.98	50.0000
769.29	49.4810
769.61	47.9592
769.92	50.1792
770.23	46.5704
770.54	48.3146
770.85	52.5180
771.17	48.9130
771.48	52.9630
771.79	53.6398
772.10	51.3109
772.41	50.7519
772.72	53.3865
773.03	51.5748
773.35	51.7647
773.66	51.5748
773.97	51.3944
774.28	49.3827
774.59	49.7959
774.90	49.3776
775.21	49.1870
775.52	52.1739
775.83	56.8465
776.15	51.9481
776.46	51.0823
776.77	48.5106
777.08	52.3404
777.39	49.5763
777.70	48.7395
778.01	52.5210
778.32	49.1736
778.63	48.5597
778.94	51.4644
779.25	51.8828
779.56	49.3506
779.87	51.2712
780.18	50.2183
780.49	49.5726
780.80	47.5410
781.11	50.2146
781.42	51.7094
781.73	48.2759
782.04	52.2321
782.35	48.4581
782.66	53.5398
782.97	47.8070
783.28	49.5370
783.59	55.3488
783.90	51.8018
784.21	51.9048
784.52	51.9417
784.83	49.7608
785.14	48.5849
785.45	48.6239
785.76	49.2823
786.06	49.5050
786.37	50.4808
786.68	50.2415
786.99	49.4845
787.30	49.2683
787.61	51.4563
787.92	50.4902
788.23	49.2611
788.54	53.2663
788.84	48.7685
789.15	53.1100
789.46	54.0000
789.77	55.0802
790.08	55.6701
790.39	52.4324
790.70	50.5051
791.00	52.9730
791.31	55.3763
791.62	47.6684
791.93	54.5977
792.24	45.1087
792.54	50.2703
792.85	49.7268
793.16	56.3536
793.47	47.1204
793.78	49.2537
794.08	49.7436
794.39	48.4694
794.70	50.2513
795.01	46.4286
795.31	52.7778
795.62	50.9091
795.93	50.5882
796.24	50.5747
796.54	50.0000
796.85	56.0694
797.16	54.7059
797.47	55.4878
797.77	51.7857
798.08	50.2994
798.39	46.2857
798.69	53.2934
799.00	57.2289
799.31	53.0488
799.62	54.8387
799.92	51.8519
800.23	50.0000
800.54	54.1401
800.84	50.9804
801.15	51.5924
801.46	53.5032
801.76	54.1096
802.07	53.8462
802.37	52.4138
802.68	52.8169
802.99	51.7730
803.29	52.3810
803.60	47.6190
803.91	55.4795
804.21	52.0000
804.52	50.3448
804.82	51.4493
805.13	49.3151
805.44	49.3333
805.74	49.0066
806.05	50.6329
806.35	52.7027
806.66	54.3624
806.96	48.9655
807.27	49.6350
807.57	46.7153
807.88	51.7730
808.19	48.2517
808.49	50.3759
808.80	47.5524
809.10	48.9209
809.41	52.2727
809.71	45.3846
810.02	54.9618
810.32	53.2787
810.63	50.4132
810.93	55.3719
811.24	50.0000
811.54	46.4567
811.85	51.6129
812.15	52.7132
812.45	52.0000
812.76	54.0323
813.06	50.8065
813.37	49.6000
813.67	50.8197
813.98	53.6000
814.28	60.0000
814.58	57.8947
814.89	52.9915
815.19	51.7241
815.50	50.8621
815.80	44.5378
816.11	46.4000
816.41	49.0741
816.71	51.2821
817.02	48.7179
817.32	47.5806
817.62	46.6102
817.93	45.2830
818.23	53.1532
818.53	53.1532
818.84	47.2727
819.14	47.7477
819.44	50.4587
819.75	49.1525
820.05	42.4528
820.35	52.2124
820.66	52.5862
820.96	55.2632
821.26	58.0952
821.57	50.4673
821.87	49.0909
822.17	51.4286
822.48	47.7064
822.78	52.4272
823.08	47.9592
823.38	48.1818
823.69	58.4158
823.99	43.3962
824.29	53.0612
824.59	50.5051
824.90	58.1633
825.20	49.5146
825.50	52.3810
825.80	53.8462
826.10	51.0870
826.41	52.0833
826.71	56.3830
827.01	56.9892
827.31	46.4646
827.61	47.0000
827.92	46.3158
828.22	45.1923
828.52	52.2222
828.82	55.0000
829.12	65.8824
829.42	52.8090
829.73	57.4713
830.03	55.0000
830.33	51.8072
830.63	50.5618
830.93	50.0000
831.23	50.5376
831.53	55.4348
831.83	48.9130
832.14	48.8372
832.44	48.2353
832.74	53.6585
833.04	43.0108
833.34	46.9880
833.64	50.0000
833.94	52.8090
834.24	50.5376
834.54	46.2366
834.84	46.3415
835.14	61.3333
835.44	53.5714
835.74	51.8072
836.04	42.2222
836.34	53.0120
836.64	42.2222
836.95	44.8276
837.25	43.7500
837.55	52.9412
837.85	55.2632
838.15	50.6494
838.45	48.7179
838.74	38.3721
839.04	53.7500
839.34	53.3333
839.64	52.9412
839.94	48.0000
840.24	50.0000
840.54	54.5455
840.84	43.2836
841.14	53.4247
841.44	47.4359
841.74	51.2195
842.04	45.2055
842.34	52.5641
842.64	47.8873
842.94	57.1429
843.24	53.6232
843.53	44.4444
843.83	54.7945
844.13	50.0000
844.43	52.0548
844.73	56.1644
845.03	53.7313
845.33	52.3810
845.63	55.5556
845.92	56.2500
846.22	51.4706
846.52	63.7931
846.82	41.9355
847.12	50.0000
847.42	53.7313
847.71	51.4286
848.01	46.4789
848.31	53.9683
848.61	62.7119
848.91	50.0000
849.20	46.6667
849.50	40.9836
849.80	47.5410
850.10	48.3871
850.39	50.7692
850.69	48.4848
850.99	46.9697
851.29	55.7377
851.59	46.0317
851.88	57.1429
852.18	56.4516
852.48	48.3871
852.77	40.6250
853.07	44.2623
853.37	46.8750
853.67	54.2857
853.96	49.2537
854.26	42.8571
854.56	43.3333
854.85	41.6667
855.15	52.5424
855.45	45.7143
855.74	56.8966
856.04	47.4576
856.34	47.5410
856.63	38.4615
856.93	44.6429
857.23	60.7843
857.52	58.1818
857.82	54.2373
858.11	50.7692
858.41	38.2353
858.71	55.9322
859.00	50.0000
859.30	50.9804
859.59	55.5556
859.89	48.3333
860.19	59.2593
860.48	42.2222
860.78	40.4255
861.07	43.3962
861.37	50.0000
861.66	47.1698
861.96	61.2245
862.26	46.4286
862.55	35.8491
862.85	50.0000
863.14	48.0769
863.44	42.3077
863.73	53.8462
864.03	37.5000
864.32	43.3962
864.62	43.7500
864.91	38.0952
865.21	38.2979
865.50	42.5532
865.80	39.1304
866.09	54.0000
866.39	37.7778
866.68	44.8980
866.97	56.8182
867.27	52.0833
867.56	50.0000
867.86	44.0000
868.15	53.1915
868.45	50.0000
868.74	37.2093
869.03	34.0426
869.33	48.8372
869.62	47.9167
869.92	46.5116
870.21	43.5897
870.50	45.9459
870.80	50.0000
871.09	40.0000
871.39	57.5000
871.68	52.2727
871.97	43.2432
872.27	40.4762
872.56	41.4634
872.85	33.3333
873.15	37.5000
873.44	46.1538
873.73	35.1351
874.03	44.1176
874.32	35.2941
874.61	58.9744
874.90	54.5455
875.20	39.4737
875.49	33.3333
875.78	27.2727
>>>>>End Spectral Data<<<<<
